# C(3P)-CO2, ground-state PES; differential cross sections (mgacesa, Aug 26 2020)
# theta(rad)                 elastic CS                total CS (both in units of 1E-16 cm^2)
0.	1.098396e6	1.11414516625204e6
0.0017453292519943296	1.03281e6	1.04680059999e6
0.003490658503988659	865167.6	875054.978818
0.005235987755982989	656780.9	662459.891913
0.006981317007977318	458520.3	461292.789456
0.008726646259971648	296151.3	297553.889766
0.010471975511965978	177532.2	178736.852493
0.012217304763960306	100038.4	101661.846019
0.013962634015954637	54909.21	57052.5652029
0.015707963267948967	31780.97	34234.7649033
0.017453292519943295	21795.49	24255.560126
0.019198621771937624	18335.78	20537.8696519
0.020943951023931956	17106.29	18900.8615486
0.022689280275926284	16001.27	17373.2583903
0.024434609527920613	14354.17	15389.3479129
0.02617993877991494	12174.01	13011.5305717
0.027925268031909273	9797.788	10588.957823
0.029670597283903602	7624.502	8493.16645728
0.031415926535897934	5895.615	6913.44093843
0.03316125578789226	4700.314	5885.56569622
0.03490658503988659	4028.601	5354.0686852
0.03665191429188092	3759.066	5163.58449754
0.03839724354387525	3715.051	5122.72056637
0.04014257279586957	3753.762	5092.69425302
0.04188790204786391	3770.541	4984.60970729
0.043633231299858244	3688.477	4746.72244841
0.04537856055185257	3483.465	4385.08745372
0.0471238898038469	3174.902	3944.25267596
0.048869219055841226	2795.514	3472.84769877
0.05061454830783556	2394.095	3027.63174946
0.05235987755982988	2029.746	2665.88664112
0.054105206811824215	1740.104	2413.04278137
0.05585053606381855	1537.447	2263.92475676
0.05759586531581287	1425.32	2203.63755016
0.059341194567807204	1392.992	2204.17315815
0.061086523819801536	1410.504	2223.93105308
0.06283185307179587	1444.907	2226.89894161
0.0645771823237902	1468.306	2188.7746508
0.06632251157578452	1455.576	2093.21889176
0.06806784082777885	1393.463	1940.82547399
0.06981317007977318	1285.802	1750.7904497
0.0715584993317675	1142.782	1545.40753057
0.07330382858376185	977.0966	1344.79981586
0.07504915783575618	809.135	1171.63964509
0.0767944870877505	660.4192	1043.47620241
0.07853981633974483	543.1999	963.531586722
0.08028514559173915	462.3064	925.370801078
0.08203047484373349	418.1497	917.543487481
0.08377580409572782	403.8319	922.645325674
0.08552113334772216	407.3591	922.536655526
0.08726646259971649	417.242	904.928936746
0.0890117918517108	422.4905	862.229449386
0.09075712110370514	413.2609	791.583081436
0.09250245035569946	385.8308	699.049314114
0.0942477796076938	342.6923	597.22642394
0.09599310885968813	288.1156	498.532534197
0.09773843811168245	227.8551	413.937887204
0.09948376736367678	170.0671	353.020260206
0.10122909661567112	122.0601	320.338158917
0.10297442586766545	87.81047	314.059423233
0.10471975511965977	68.80948	328.247226467
0.10646508437165408	63.97731	353.808506863
0.10821041362364843	69.22412	379.624009532
0.10995574287564278	79.41749	396.197663353
0.1117010721276371	89.9382	397.693028492
0.11344640137963143	96.44534	381.448241649
0.11519173063162574	95.81347	348.636216901
0.11693705988362009	87.627	304.854337598
0.11868238913561441	73.55866	258.048863056
0.12042771838760875	56.19976	216.247795116
0.12217304763960307	38.93051	186.579994371
0.12391837689159739	25.23174	173.75178256
0.12566370614359174	17.4727	178.716622276
0.12740903539558604	16.72109	199.135420579
0.1291543646475804	22.80155	230.105291235
0.13089969389957473	33.95424	264.591026437
0.13264502315156904	47.31738	295.055751146
0.1343903524035634	59.98336	315.417767219
0.1361356816555577	69.37529	321.791540415
0.13788101090755206	73.556	313.019771303
0.13962634015954636	71.89798	291.217025252
0.1413716694115407	65.08085	260.992126557
0.143116998663535	54.6311	228.160385428
0.14486232791552936	42.88921	199.141060588
0.1466076571675237	32.6346	179.823301521
0.148352986419518	26.0637	173.802801528
0.15009831567151236	24.40771	181.90894056
0.15184364492350666	28.1464	202.711144999
0.153588974175501	36.7404	232.521037383
0.15533430342749535	48.48297	265.806762507
0.15707963267948966	61.14051	296.659304874
0.158824961931484	72.43772	319.830583897
0.1605702911834783	80.20678	331.255015732
0.16231562043547265	82.99804	329.093634015
0.16406094968746698	80.53462	314.221919402
0.16580627893946132	73.32721	289.345204193
0.16755160819145565	62.4805	258.385022665
0.16929693744344995	49.96478	226.456620545
0.1710422666954443	38.15764	198.796523248
0.17278759594743864	28.93489	179.221314569
0.17453292519943298	23.54025	169.836536031
0.17627825445142728	22.71349	171.192206834
0.1780235837034216	26.31968	181.911048549
0.17976891295541597	33.28459	198.908799249
0.18151424220741028	42.08546	218.379127746
0.1832595714594046	50.94759	236.316410844
0.1850049007113989	57.96849	248.946518269
0.18675022996339327	61.73779	253.768429421
0.1884955592153876	61.66867	250.021281414
0.1902408884673819	57.68026	238.149661906
0.19198621771937627	50.20112	219.672098038
0.19373154697137057	40.47539	197.398682043
0.1954768762233649	30.19519	174.693455739
0.19722220547535924	20.84848	154.406600088
0.19896753472735357	13.65034	138.671065331
0.20071286397934793	9.554417	128.861641334
0.20245819323134223	8.901156	125.152343531
0.20420352248333656	11.34077	126.533376544
0.2059488517353309	16.10938	131.325240666
0.20769418098732523	22.08862	137.39729555
0.20943951023931953	27.89875	142.433598248
0.2111848394913139	32.35783	144.647588325
0.21293016874330817	34.72024	143.120022349
0.21467549799530256	34.51833	137.550040108
0.21642082724729686	31.65202	128.299742315
0.2181661564992912	26.64039	116.610680703
0.21991148575128555	20.40852	104.19017437
0.22165681500327983	13.89196	92.5887916135
0.2234021442552742	7.986698	83.0703314412
0.22514747350726852	3.525976	76.5527443153
0.22689280275926285	1.023628	73.3046839583
0.22863813201125716	0.5641728	72.8918688328
0.2303834612632515	1.915549	74.4296265849
0.23212879051524585	4.563535	76.7327858215
0.23387411976724018	7.764597	78.4903265217
0.23561944901923448	10.77949	78.6432876441
0.23736477827122882	13.02879	76.6019669838
0.23911010752322315	14.08096	72.2012527469
0.2408554367752175	13.73069	65.7383826521
0.24260076602721184	12.12237	58.0295080396
0.24434609527920614	9.663477	50.1820222394
0.24609142453120048	6.842875	43.2665679455
0.24783675378319478	4.170622	38.1681589709
0.24958208303518917	2.136194	35.4867229731
0.25132741228718347	1.076721	35.3787793344
0.2530727415391778	1.082686	37.502457192
0.2548180707911721	2.01932	41.1268320102
0.2565634000431664	3.587541	45.2976431828
0.2583087292951608	5.378283	49.0092693456
0.26005405854715513	6.943131	51.3830587818
0.26179938779914946	7.893872	51.833263616
0.26354471705114374	8.002065	50.1923122411
0.26529004630313807	7.240927	46.7358476384
0.26703537555513246	5.766706	42.0948805584
0.2687807048071268	3.895397	37.1355566883
0.27052603405912107	2.06181	32.8212061184
0.2722713633111154	0.716084	30.010157056
0.27401669256310973	0.2217087	29.272276201
0.2757620218151041	0.8053585	30.8096962806
0.2775073510670984	2.498195	34.4135906072
0.2792526803190927	5.094791	39.4657947341
0.28099800957108706	8.22215	45.089735476
0.2827433388230814	11.4265	50.3419760162
0.2844886680750758	14.18501	54.309079196
0.28623399732707	15.98872	56.2588024933
0.2879793265790644	16.52896	55.8835689175
0.2897246558310587	15.74918	53.3541277836
0.29146998508305305	13.75763	49.171255808
0.2932153143350474	10.84599	44.1155764327
0.29496064358704166	7.544531	39.2315718486
0.296705972839036	4.486874	35.5876567001
0.2984513020910304	2.230743	33.9989803607
0.3001966313430247	1.225694	34.9555777326
0.30194196059501904	1.769983	38.573572828
0.3036872898470133	3.893665	44.4916917481
0.30543261909900765	7.362869	51.9411681024
0.307177948351002	11.76473	59.9306083732
0.3089232776029963	16.50604	67.330724427
0.3106686068549907	20.87452	73.0218100515
0.312413936106985	24.25411	76.200241625
0.3141592653589793	26.22428	76.5127158769
0.31590459461097364	26.50039	73.9655651814
0.317649923862968	25.0069	68.9593248661
0.3193952531149623	22.01799	62.3760997842
0.3211405823669566	18.06232	55.374839136
0.32288591161895097	13.73399	49.0828272855
0.3246312408709453	9.671001	44.5015078711
0.32637657012293964	6.527867	42.4285194209
0.32812189937493397	4.803156	43.2481511695
0.32986722862692824	4.743951	46.8559661962
0.33161255787892263	6.374749	52.7549699211
0.33335788713091696	9.467587	60.0977575976
0.3351032163829113	13.53554	67.7729469108
0.3368485456349056	17.9806	74.6702869205
0.3385938748868999	22.20131	79.867532115
0.3403392041388943	25.5821	82.6461296671
0.3420845333908886	27.59593	82.6132500629
0.3438298626428829	27.99005	79.8836031331
0.3455751918948773	26.78035	75.0015613162
0.34732052114687156	24.14137	68.7288289825
0.34906585039886595	20.42969	61.9865888501
0.3508111796508603	16.20292	55.7940466243
0.35255650890285456	12.07226	51.0378333577
0.3543018381548489	8.570751	48.3004648431
0.3560471674068432	6.134417	47.847698791
0.35779249665883756	5.04551	49.5954920963
0.35953782591083194	5.354785	53.0897800273
0.3612831551628262	6.91508	57.6373125013
0.36302848441482055	9.434426	62.4468366473
0.3647738136668149	12.46766	66.6832480567
0.3665191429188092	15.48516	69.6013414278
0.3682644721708036	18.02304	70.7430220749
0.3700098014227978	19.73037	69.971476794
0.3717551306747922	20.34503	67.3968153024
0.37350045992678654	19.75747	63.3871397625
0.3752457891787809	18.07606	58.5624584258
0.3769911184307752	15.56219	53.6383600749
0.3787364476827695	12.54601	49.269404414
0.3804817769347638	9.411978	45.9915994271
0.38222710618675815	6.556048	44.1530746724
0.38397243543875254	4.297836	43.8329820683
0.38571776469074687	2.845338	44.8551691414
0.38746309394274114	2.292121	46.8476228019
0.3892084231947355	2.590176	49.2798168125
0.3909537524467298	3.559865	51.5520852731
0.39269908169872414	4.956885	53.1367491777
0.39444441095071847	6.50869	53.6519268483
0.3961897402027128	7.923281	52.8792352744
0.39793506945470714	8.945696	50.8130701265
0.3996803987067014	9.42138	47.6864207055
0.40142572795869585	9.293714	43.902306326
0.4031710572106902	8.582939	39.942922709
0.40491638646268446	7.393428	36.3101968553
0.4066617157146788	5.902154	33.4511645015
0.4084070449666731	4.311475	31.6711279178
0.41015237421866746	2.813786	31.0910129354
0.4118977034706618	1.573151	31.6412057323
0.41364303272265607	0.7002056	33.0688500602
0.41538836197465046	0.2368223	34.9819326716
0.41713369122664473	0.1636793	36.9258587704
0.41887902047863906	0.4099724	38.4532152438
0.4206243497306334	0.8636851	39.1868256434
0.4223696789826278	1.396762	38.8843816277
0.4241150082346221	1.892404	37.4764353189
0.42586033748661634	2.258874	35.0666512221
0.4276056667386108	2.438476	31.9128653173
0.4293509959906051	2.415331	28.386381196
0.4310963252425994	2.213517	24.9066229823
0.4328416544945937	1.886246	21.8754707188
0.43458698374658805	1.501369	19.6213597591
0.4363323129985824	1.126188	18.3478629864
0.4380776422505767	0.8170853	18.1048467906
0.4398229715025711	0.6114661	18.7921026512
0.44156830075456543	0.5176273	20.1775041347
0.44331363000655966	0.5151552	21.9323904886
0.445058959258554	0.5705866	23.6945528113
0.4468042885105484	0.6459418	25.1271299723
0.4485496177625427	0.6974769	25.9539622477
0.45029494701453704	0.6893305	25.9998077792
0.45204027626653137	0.6132541	25.2290408482
0.4537856055185257	0.4845429	23.7374443464
0.45553093477052004	0.3292793	21.7134382415
0.4572762640225143	0.1870294	19.4139673272
0.45902159327450864	0.1079271	17.1340044602
0.460766922526503	0.1328966	15.1469453341
0.4625122517784973	0.2846486	13.6583367895
0.4642575810304917	0.5689267	12.7904723923
0.466002910282486	0.9640139	12.5661794428
0.46774823953448036	1.418236	12.9033902124
0.46949356878647464	1.871315	13.6475222013
0.47123889803846897	2.264121	14.6056272043
0.47298422729046335	2.530882	15.5616910304
0.47472955654245763	2.616061	16.3150165935
0.47647488579445196	2.504581	16.733995673
0.4782202150464463	2.216508	16.7647985439
0.4799655442984406	1.787736	16.412081529
0.481710873550435	1.27815	15.7452523504
0.48345620280242924	0.7759566	14.8990320735
0.4852015320544237	0.3705741	14.0301515028
0.48694686130641796	0.1325594	13.2766315309
0.4886921905584123	0.1139123	12.7478994557
0.4904375198104066	0.3366746	12.508535385
0.49218284906240095	0.7797638	12.5573494176
0.4939281783143953	1.390911	12.8373825534
0.49567350756638956	2.097145	13.255934613
0.4974188368183839	2.799655	13.6907153472
0.49916416607037833	3.390638	14.0142060376
0.5009094953223726	3.78836	14.1367390082
0.5026548245743669	3.942554	14.0189199849
0.5044001538263613	3.823933	13.6613425873
0.5061454830783556	3.440124	13.1151517704
0.5078908123303499	2.850616	12.4894594627
0.5096361415823442	2.145512	11.9192820671
0.5113814708343386	1.421992	11.5291104663
0.5131268000863328	0.7822376	11.4216265835
0.5148721293383272	0.3224197	11.6630984709
0.5166174585903216	0.1085094	12.2588851173
0.5183627878423159	0.1685303	13.1498314549
0.5201081170943103	0.4945479	14.2263408581
0.5218534463463045	1.036977	15.340085744
0.5235987755982989	1.710297	16.3253053853
0.5253441048502933	2.415998	17.0339519309
0.5270894341022875	3.05493	17.3598354977
0.5288347633542818	3.530877	17.2498528592
0.5305800926062761	3.769995	16.7192481539
0.5323254218582705	3.741579	15.8587827513
0.5340707511102649	3.455037	14.8170738352
0.5358160803622593	2.950033	13.7738199685
0.5375614096142536	2.297244	12.9172021692
0.5393067388662478	1.592408	12.4162663613
0.5410520681182421	0.9355853	12.3893629557
0.5427973973702365	0.4138548	12.8832058973
0.5445427266222308	0.09291069	13.8652292058
0.5462880558742251	0.008336678	15.2264075395
0.5480333851262195	0.1587544	16.7959585623
0.5497787143782138	0.5072622	18.36543585
0.5515240436302082	0.9885912	19.7193617436
0.5532693728822025	1.519778	20.6713175129
0.5550147021341968	2.013577	21.0940967917
0.5567600313861911	2.391172	20.9355385699
0.5585053606381855	2.593827	20.2289095678
0.5602506898901798	2.593312	19.0968822781
0.5619960191421741	2.395232	17.7320344696
0.5637413483941685	2.035154	16.3611308971
0.5654866776461628	1.573727	15.2161570014
0.5672320068981571	1.088322	14.5059050584
0.5689773361501516	0.6581133	14.3773385338
0.5707226654021459	0.3513219	14.8885110595
0.57246799465414	0.2170198	16.0049698396
0.5742133239061344	0.2748498	17.6020846417
0.5759586531581288	0.510043	19.4762808496
0.5777039824101231	0.8818749	21.3807223416
0.5794493116621174	1.330785	23.0642770004
0.5811946409141118	1.779079	24.2967619829
0.5829399701661061	2.145506	24.9046361947
0.5846852994181004	2.369769	24.8138091472
0.5864306286700948	2.417617	24.0563189179
0.5881759579220891	2.274702	22.7493279874
0.5899212871740833	1.956756	21.0893740509
0.5916666164260777	1.518482	19.341560753
0.593411945678072	1.036126	17.7883324755
0.5951572749300664	0.5880739	16.6755260299
0.5969026041820608	0.2523083	16.1903989213
0.598647933434055	0.09701179	16.4399891155
0.6003932626860494	0.1609037	17.421249762
0.6021385919380438	0.4491117	19.0214153208
0.6038839211900381	0.9371483	21.0423996734
0.6056292504420324	1.565364	23.2188986303
0.6073745796940266	2.245319	25.2516099519
0.609119908946021	2.88537	26.8658194583
0.6108652381980153	3.401234	27.8485193168
0.6126105674500096	3.712984	28.0590491994
0.614355896702004	3.764739	27.4585030851
0.6161012259539983	3.549852	26.1376287952
0.6178465552059926	3.102042	24.2912614439
0.6195918844579871	2.477523	22.1725167259
0.6213372137099814	1.760586	20.0743048412
0.6230825429619757	1.062018	18.3022799757
0.62482787221397	0.490892	17.115083805
0.6265732014659643	0.1348882	16.6815524039
0.6283185307179586	0.05809344	17.0713400071
0.630063859969953	0.2892614	18.2432418164
0.6318091892219473	0.8100577	20.0409798297
0.6335545184739416	1.564401	22.2240753963
0.635299847725936	2.467492	24.5046647192
0.6370451769779303	3.405081	26.5724271462
0.6387905062299246	4.251753	28.1406310474
0.6405358354819191	4.901921	29.0036576392
0.6422811647339132	5.277114	29.0562066506
0.6440264939859075	5.323467	28.2896430589
0.6457718232379019	5.029771	26.805772767
0.6475171524898963	4.440566	24.8170696739
0.6492624817418906	3.639167	22.6020352268
0.6510078109938849	2.729885	20.45688971
0.6527531402458793	1.834872	18.6686705454
0.6544984694978736	1.079937	17.4791688162
0.6562437987498679	0.5696208	17.0412391161
0.6579891280018623	0.3758669	17.4016078541
0.6597344572538565	0.532743	18.5017310883
0.6614797865058508	1.025381	20.1789703763
0.6632251157578453	1.791535	22.1891346873
0.6649704450098396	2.738289	24.251970442
0.6667157742618339	3.750812	26.0861050607
0.6684611035138281	4.698708	27.4361564285
0.6702064327658226	5.459298	28.1151981677
0.6719517620178169	5.940826	28.0394882556
0.6736970912698113	6.086842	27.229060843
0.6754424205218056	5.879023	25.7971258433
0.6771877497737998	5.346334	23.9425391047
0.6789330790257941	4.561682	21.9232753561
0.6806784082777886	3.626773	20.0126622959
0.6824237375297829	2.661214	18.4636805916
0.6841690667817772	1.789377	17.4783789777
0.6859143960337715	1.119241	17.1752241237
0.6876597252857658	0.7292275	17.5737407924
0.6894050545377601	0.6647399	18.6004628809
0.6911503837897546	0.929611	20.0972212049
0.6928957130417489	1.480625	21.8374130548
0.6946410422937431	2.238975	23.5640506627
0.6963863715457375	3.104893	25.0306638183
0.6981317007977319	3.965333	26.0288165351
0.6998770300497262	4.707912	26.415014429
0.7016223593017206	5.239944	26.1353549393
0.7033676885537148	5.497371	25.2293981516
0.7051130178057091	5.449637	23.8200602774
0.7068583470577035	5.108233	22.1013169987
0.7086036763096978	4.52384	20.3103727055
0.7103490055616921	3.771132	18.6858886911
0.7120943348136864	2.941646	17.4381681852
0.7138396640656808	2.139768	16.7291621049
0.7155849933176751	1.463233	16.6441512008
0.7173303225696696	0.9834544	17.1730090964
0.7190756518216639	0.7443966	18.2205991343
0.7208209810736581	0.7628448	19.6256280804
0.7225663103256524	1.019894	21.1755667827
0.7243116395776468	1.463156	22.6358810039
0.7260569688296411	2.020919	23.7891636634
0.7278022980816354	2.610018	24.4613906996
0.7295476273336298	3.143511	24.5423595139
0.7312929565856241	3.547973	24.0082647121
0.7330382858376184	3.773018	22.9238128227
0.7347836150896128	3.788684	21.4223297508
0.7365289443416072	3.591618	19.6918620088
0.7382742735936013	3.214026	17.9606345707
0.7400196028455956	2.711973	16.457436999
0.7417649320975901	2.147871	15.3700062039
0.7435102613495844	1.589995	14.8300403981
0.7452555906015788	1.110373	14.9031620627
0.7470009198535731	0.7662729	15.5696531941
0.7487462491055674	0.5890793	16.7242498124
0.7504915783575618	0.5890574	18.1999142208
0.7522369076095561	0.7550996	19.7890193
0.7539822368615504	1.051221	21.2653521352
0.7557275661135446	1.425819	22.4206423008
0.757472895365539	1.821923	23.0938869982
0.7592182246175333	2.178515	23.1825284649
0.7609635538695276	2.439725	22.6584483359
0.7627088831215221	2.57067	21.5829020077
0.7644542123735163	2.557202	20.0905072459
0.7661995416255106	2.398049	18.3588440833
0.7679448708775051	2.11127	16.5947682313
0.7696902001294994	1.739109	15.0170561755
0.7714355293814937	1.333167	13.8160785547
0.773180858633488	0.9412754	13.1225329503
0.7749261878854823	0.609405	13.0022341906
0.7766715171374766	0.3782489	13.4509168074
0.778416846389471	0.2709047	14.3870621943
0.7801621756414654	0.2909768	15.6659103809
0.7819075048934596	0.4274249	17.1046887639
0.783652834145454	0.653002	18.5010401987
0.7853981633974483	0.926941	19.6587586061
0.7871434926494427	1.206904	20.4221977249
0.7888888219014369	1.453341	20.6925283322
0.7906341511534312	1.627768	20.4292725832
0.7923794804054256	1.702172	19.6611807993
0.7941248096574199	1.66949	18.4908799795
0.7958701389094143	1.537768	17.0707143462
0.7976154681614087	1.322651	15.5736804502
0.7993607974134028	1.051777	14.1802091399
0.8011061266653973	0.7644133	13.0594563569
0.8028514559173917	0.4991376	12.3381712104
0.8045967851693859	0.2870253	12.0832474942
0.8063421144213804	0.1526849	12.3012720917
0.8080874436733746	0.110155	12.9373991288
0.8098327729253689	0.1582353	13.8798902036
0.8115781021773633	0.2840117	14.9803803888
0.8133234314293576	0.4657448	16.0749399727
0.815068760681352	0.6720959	17.0001089338
